"ID","Lon","Lat","Elev(ft)","Elev(m)"
1,-153.2000,60.4852,4503.37,1372.63
2,-153.1960,60.4852,4439.30,1353.10
3,-153.1920,60.4852,4544.25,1385.09
4,-153.1880,60.4852,4711.98,1436.21
5,-153.1839,60.4852,5005.20,1525.58
6,-153.1799,60.4852,4332.38,1320.51
7,-153.1759,60.4852,3758.27,1145.52
8,-153.1719,60.4852,3455.08,1053.11
9,-153.1679,60.4852,3599.18,1097.03
10,-153.1639,60.4852,3955.81,1205.73
11,-153.1598,60.4852,4414.21,1345.45
12,-153.1558,60.4852,4340.45,1322.97
13,-153.1518,60.4852,3956.67,1205.99
14,-153.1478,60.4852,3684.02,1122.89
15,-153.1438,60.4852,3673.35,1119.64
16,-153.1398,60.4852,3838.14,1169.87
17,-153.1357,60.4852,4293.38,1308.62
18,-153.1317,60.4852,4153.84,1266.09
19,-153.1277,60.4852,3412.96,1040.27
20,-153.1237,60.4852,3164.84,964.64
21,-153.1197,60.4852,2928.82,892.70
22,-153.1157,60.4852,2837.99,865.02
23,-153.1116,60.4852,2753.85,839.37
24,-153.1076,60.4852,2634.20,802.90
25,-153.1036,60.4852,2463.02,750.73
26,-153.0996,60.4852,2248.95,685.48
27,-153.0956,60.4852,1786.36,544.48
28,-153.0916,60.4852,1538.07,468.80
29,-153.0876,60.4852,1425.47,434.48
30,-153.0835,60.4852,1361.86,415.09
31,-153.0795,60.4852,1562.58,476.27
32,-153.0755,60.4852,1980.09,603.53
33,-153.0715,60.4852,2370.08,722.40
34,-153.0675,60.4852,2782.01,847.96
35,-153.0635,60.4852,2938.31,895.60
36,-153.0594,60.4852,3313.48,1009.95
37,-153.0554,60.4852,3636.97,1108.55
38,-153.0514,60.4852,3928.25,1197.33
39,-153.0474,60.4852,3736.60,1138.92
40,-153.0434,60.4852,3811.70,1161.81
41,-153.0394,60.4852,4091.57,1247.11
42,-153.0353,60.4852,4254.59,1296.80
43,-153.0313,60.4852,4424.31,1348.53
44,-153.0273,60.4852,4624.93,1409.68
45,-153.0233,60.4852,4734.73,1443.15
46,-153.0193,60.4852,4914.62,1497.98
47,-153.0153,60.4852,4347.16,1325.01
48,-153.0112,60.4852,4136.75,1260.88
49,-153.0072,60.4852,4081.42,1244.02
50,-153.0032,60.4852,3878.56,1182.19
51,-152.9992,60.4852,3704.89,1129.25
52,-152.9952,60.4852,3470.37,1057.77
53,-152.9912,60.4852,3414.70,1040.80
54,-152.9871,60.4852,3379.88,1030.19
55,-152.9831,60.4852,3214.36,979.74
56,-152.9791,60.4852,3025.37,922.13
57,-152.9751,60.4852,2942.68,896.93
58,-152.9711,60.4852,2921.30,890.41
59,-152.9671,60.4852,2861.33,872.13
60,-152.9631,60.4852,2797.87,852.79
61,-152.9590,60.4852,2642.41,805.41
62,-152.9550,60.4852,2793.56,851.48
63,-152.9510,60.4852,2923.47,891.07
64,-152.9470,60.4852,2732.51,832.87
65,-152.9430,60.4852,2267.59,691.16
66,-152.9390,60.4852,1677.31,511.24
67,-152.9349,60.4852,1393.84,424.84
68,-152.9309,60.4852,1408.27,429.24
69,-152.9269,60.4852,1404.08,427.96
70,-152.9229,60.4852,1540.12,469.43
71,-152.9189,60.4852,1871.65,570.48
72,-152.9149,60.4852,2327.40,709.39
73,-152.9108,60.4852,2941.14,896.46
74,-152.9068,60.4852,3226.16,983.33
75,-152.9028,60.4852,3175.91,968.02
76,-152.8988,60.4852,2994.30,912.66
77,-152.8948,60.4852,2895.12,882.43
78,-152.8908,60.4852,2867.02,873.87
79,-152.8867,60.4852,2814.16,857.76
80,-152.8827,60.4852,2954.77,900.61
81,-152.8787,60.4852,3275.42,998.35
82,-152.8747,60.4852,3497.34,1065.99
83,-152.8707,60.4852,3663.68,1116.69
84,-152.8667,60.4852,3702.79,1128.61
85,-152.8627,60.4852,3737.35,1139.14
86,-152.8586,60.4852,3853.49,1174.54
87,-152.8546,60.4852,4121.20,1256.14
88,-152.8506,60.4852,4443.26,1354.31
89,-152.8466,60.4852,4967.70,1514.15
90,-152.8426,60.4852,5032.12,1533.79
91,-152.8386,60.4852,5101.69,1555.00
92,-152.8345,60.4852,5179.84,1578.82
93,-152.8305,60.4852,5264.83,1604.72
94,-152.8265,60.4852,5350.51,1630.84
95,-152.8225,60.4852,5489.52,1673.21
96,-152.8185,60.4852,5667.88,1727.57
97,-152.8145,60.4852,5865.97,1787.95
98,-152.8104,60.4852,5986.74,1824.76
99,-152.8064,60.4852,6231.56,1899.38
100,-152.8024,60.4852,6448.37,1965.46
101,-152.7984,60.4852,6781.11,2066.88
102,-152.7944,60.4852,7038.44,2145.32
103,-152.7904,60.4852,7625.26,2324.18
104,-152.7863,60.4852,7939.75,2420.04
105,-152.7823,60.4852,8565.10,2610.64
106,-152.7783,60.4852,8610.92,2624.61
107,-152.7743,60.4852,8561.56,2609.56
108,-152.7703,60.4852,8457.43,2577.82
109,-152.7663,60.4852,8104.57,2470.27
110,-152.7622,60.4852,8012.36,2442.17
111,-152.7582,60.4852,8179.59,2493.14
112,-152.7542,60.4852,8525.93,2598.70
113,-152.7502,60.4852,8866.00,2702.36
114,-152.7462,60.4852,9360.60,2853.11
115,-152.7422,60.4852,10109.60,3081.41
116,-152.7382,60.4852,9501.01,2895.91
117,-152.7341,60.4852,8769.76,2673.02
118,-152.7301,60.4852,8316.14,2534.76
119,-152.7261,60.4852,7833.15,2387.54
120,-152.7221,60.4852,7357.95,2242.70
121,-152.7181,60.4852,6790.14,2069.63
122,-152.7141,60.4852,6262.14,1908.70
123,-152.7100,60.4852,5618.90,1712.64
124,-152.7060,60.4852,5448.75,1660.78
125,-152.7020,60.4852,5006.34,1525.93
126,-152.6980,60.4852,4815.93,1467.90
127,-152.6940,60.4852,4553.78,1387.99
128,-152.6900,60.4852,4262.79,1299.30
129,-152.6859,60.4852,4297.58,1309.90
130,-152.6819,60.4852,4503.29,1372.60
131,-152.6779,60.4852,4756.40,1449.75
132,-152.6739,60.4852,4726.51,1440.64
133,-152.6699,60.4852,4358.07,1328.34
134,-152.6659,60.4852,3844.73,1171.87
135,-152.6618,60.4852,3686.17,1123.54
136,-152.6578,60.4852,3673.35,1119.64
137,-152.6538,60.4852,3686.52,1123.65
138,-152.6498,60.4852,3908.82,1191.41
139,-152.6458,60.4852,4144.43,1263.22
140,-152.6418,60.4852,3692.70,1125.53
141,-152.6378,60.4852,3109.66,947.82
142,-152.6337,60.4852,2520.18,768.15
143,-152.6297,60.4852,2065.70,629.63
144,-152.6257,60.4852,1874.14,571.24
145,-152.6217,60.4852,1772.18,540.16
146,-152.6177,60.4852,1748.51,532.95
147,-152.6137,60.4852,1649.45,502.75
148,-152.6096,60.4852,1931.17,588.62
149,-152.6056,60.4852,2246.78,684.82
150,-152.6016,60.4852,2441.40,744.14
151,-152.5976,60.4852,2671.13,814.16
152,-152.5936,60.4852,2999.62,914.28
153,-152.5896,60.4852,3144.91,958.57
154,-152.5855,60.4852,3252.85,991.47
155,-152.5815,60.4852,3480.25,1060.78
156,-152.5775,60.4852,3795.30,1156.81
157,-152.5735,60.4852,4001.91,1219.78
158,-152.5695,60.4852,4301.61,1311.13
159,-152.5655,60.4852,4426.31,1349.14
160,-152.5614,60.4852,3757.56,1145.30
161,-152.5574,60.4852,2941.92,896.70
162,-152.5534,60.4852,2614.59,796.93
163,-152.5494,60.4852,2366.93,721.44
164,-152.5454,60.4852,2211.67,674.12
165,-152.5414,60.4852,1953.66,595.48
166,-152.5373,60.4852,1641.96,500.47
167,-152.5333,60.4852,1263.52,385.12
168,-152.5293,60.4852,944.65,287.93
169,-152.5253,60.4852,796.36,242.73
170,-152.5213,60.4852,734.87,223.99
171,-152.5173,60.4852,719.50,219.30
172,-152.5133,60.4852,845.91,257.83
173,-152.5092,60.4852,1185.99,361.49
174,-152.5052,60.4852,1730.19,527.36
175,-152.5012,60.4852,2241.21,683.12
176,-152.4972,60.4852,2570.10,783.37
177,-152.4932,60.4852,2500.52,762.16
178,-152.4892,60.4852,2707.33,825.19
179,-152.4851,60.4852,3122.81,951.83
180,-152.4811,60.4852,3824.33,1165.66
181,-152.4771,60.4852,3267.85,996.04
182,-152.4731,60.4852,2856.94,870.80
183,-152.4691,60.4852,2575.10,784.89
184,-152.4651,60.4852,2287.91,697.35
185,-152.4610,60.4852,2103.80,641.24
186,-152.4570,60.4852,1823.68,555.86
187,-152.4530,60.4852,1546.35,471.33
188,-152.4490,60.4852,1677.12,511.19
189,-152.4450,60.4852,1573.23,479.52
190,-152.4410,60.4852,1664.40,507.31
191,-152.4369,60.4852,1813.55,552.77
192,-152.4329,60.4852,1763.86,537.62
193,-152.4289,60.4852,1684.29,513.37
194,-152.4249,60.4852,1692.17,515.77
195,-152.4209,60.4852,1537.72,468.70
196,-152.4169,60.4852,1448.58,441.53
197,-152.4129,60.4852,1399.38,426.53
198,-152.4088,60.4852,1365.92,416.33
199,-152.4048,60.4852,1348.01,410.87
200,-152.4008,60.4852,1287.22,392.34
201,-152.3968,60.4852,1291.67,393.70
202,-152.3928,60.4852,1342.91,409.32
203,-152.3888,60.4852,1319.74,402.26
204,-152.3847,60.4852,1334.27,406.69
205,-152.3807,60.4852,1094.21,333.52
206,-152.3767,60.4852,987.89,301.11
207,-152.3727,60.4852,878.90,267.89
208,-152.3687,60.4852,818.90,249.60
209,-152.3647,60.4852,739.92,225.53
210,-152.3606,60.4852,601.08,183.21
211,-152.3566,60.4852,525.75,160.25
212,-152.3526,60.4852,475.80,145.02
213,-152.3486,60.4852,424.93,129.52
214,-152.3446,60.4852,423.39,129.05
215,-152.3406,60.4852,390.17,118.92
216,-152.3365,60.4852,370.08,112.80
217,-152.3325,60.4852,350.88,106.95
218,-152.3285,60.4852,264.68,80.67
219,-152.3245,60.4852,114.99,35.05
220,-152.3205,60.4852,21.69,6.61
221,-152.3165,60.4852,7.70,2.35
222,-152.3124,60.4852,2.19,0.67
223,-152.3084,60.4852,1.02,0.31
224,-152.3044,60.4852,0.00,0.00
225,-152.3004,60.4852,0.00,0.00
226,-152.2964,60.4852,0.00,0.00
227,-152.2924,60.4852,0.00,0.00
228,-152.2884,60.4852,0.00,0.00
229,-152.2843,60.4852,0.00,0.00
230,-152.2803,60.4852,0.00,0.00
231,-152.2763,60.4852,0.00,0.00
232,-152.2723,60.4852,0.00,0.00
233,-152.2683,60.4852,0.00,0.00
234,-152.2643,60.4852,0.00,0.00
235,-152.2602,60.4852,0.00,0.00
236,-152.2562,60.4852,0.00,0.00
237,-152.2522,60.4852,0.00,0.00
238,-152.2482,60.4852,0.00,0.00
239,-152.2442,60.4852,0.00,0.00
240,-152.2402,60.4852,0.00,0.00
241,-152.2361,60.4852,0.00,0.00
242,-152.2321,60.4852,0.00,0.00
243,-152.2281,60.4852,0.00,0.00
244,-152.2241,60.4852,0.00,0.00
245,-152.2201,60.4852,0.00,0.00
246,-152.2161,60.4852,0.00,0.00
247,-152.2120,60.4852,0.00,0.00
248,-152.2080,60.4852,0.00,0.00
249,-152.2040,60.4852,0.00,0.00
250,-152.2000,60.4852,0.00,0.00
