"ID","Lon","Lat","Elev(ft)","Elev(m)"
1,-119.1500,37.5500,6829.89,2081.75
2,-119.1496,37.5503,6841.69,2085.35
3,-119.1491,37.5506,6846.38,2086.78
4,-119.1487,37.5509,6848.02,2087.28
5,-119.1483,37.5512,6859.83,2090.88
6,-119.1479,37.5515,6890.65,2100.27
7,-119.1474,37.5518,6925.65,2110.94
8,-119.1470,37.5521,6961.54,2121.88
9,-119.1466,37.5524,6971.53,2124.92
10,-119.1462,37.5527,6972.43,2125.20
11,-119.1457,37.5529,6971.86,2125.02
12,-119.1453,37.5532,6951.80,2118.91
13,-119.1449,37.5535,6963.87,2122.59
14,-119.1445,37.5538,7003.20,2134.58
15,-119.1440,37.5541,7072.54,2155.71
16,-119.1436,37.5544,7120.83,2170.43
17,-119.1432,37.5547,7148.92,2178.99
18,-119.1428,37.5550,7163.15,2183.33
19,-119.1423,37.5553,7174.75,2186.86
20,-119.1419,37.5556,7199.21,2194.32
21,-119.1415,37.5559,7221.60,2201.14
22,-119.1411,37.5562,7252.93,2210.69
23,-119.1406,37.5565,7288.06,2221.40
24,-119.1402,37.5568,7311.93,2228.68
25,-119.1398,37.5571,7340.59,2237.41
26,-119.1393,37.5574,7377.07,2248.53
27,-119.1389,37.5577,7408.07,2257.98
28,-119.1385,37.5580,7451.74,2271.29
29,-119.1381,37.5582,7484.63,2281.32
30,-119.1376,37.5585,7525.72,2293.84
31,-119.1372,37.5588,7567.88,2306.69
32,-119.1368,37.5591,7616.73,2321.58
33,-119.1364,37.5594,7682.70,2341.69
34,-119.1359,37.5597,7719.10,2352.78
35,-119.1355,37.5600,7766.57,2367.25
36,-119.1351,37.5603,7808.73,2380.10
37,-119.1347,37.5606,7820.71,2383.75
38,-119.1342,37.5609,7859.70,2395.64
39,-119.1338,37.5612,7882.30,2402.53
40,-119.1334,37.5615,7919.22,2413.78
41,-119.1330,37.5618,7957.37,2425.41
42,-119.1325,37.5621,7973.20,2430.23
43,-119.1321,37.5624,8000.28,2438.49
44,-119.1317,37.5627,8027.68,2446.84
45,-119.1313,37.5630,8066.80,2458.76
46,-119.1308,37.5633,8108.05,2471.33
47,-119.1304,37.5635,8169.35,2490.02
48,-119.1300,37.5638,8240.42,2511.68
49,-119.1295,37.5641,8295.55,2528.48
50,-119.1291,37.5644,8368.01,2550.57
51,-119.1287,37.5647,8433.01,2570.38
52,-119.1283,37.5650,8489.57,2587.62
53,-119.1278,37.5653,8554.53,2607.42
54,-119.1274,37.5656,8570.38,2612.25
55,-119.1270,37.5659,8585.83,2616.96
56,-119.1266,37.5662,8592.55,2619.01
57,-119.1261,37.5665,8578.98,2614.87
58,-119.1257,37.5668,8582.69,2616.00
59,-119.1253,37.5671,8580.19,2615.24
60,-119.1249,37.5674,8588.15,2617.67
61,-119.1244,37.5677,8601.74,2621.81
62,-119.1240,37.5680,8599.27,2621.06
63,-119.1236,37.5683,8621.13,2627.72
64,-119.1232,37.5686,8645.44,2635.13
65,-119.1227,37.5688,8676.02,2644.45
66,-119.1223,37.5691,8689.37,2648.52
67,-119.1219,37.5694,8681.01,2645.97
68,-119.1215,37.5697,8664.21,2640.85
69,-119.1210,37.5700,8634.98,2631.94
70,-119.1206,37.5703,8605.77,2623.04
71,-119.1202,37.5706,8586.56,2617.18
72,-119.1197,37.5709,8591.06,2618.56
73,-119.1193,37.5712,8610.69,2624.54
74,-119.1189,37.5715,8665.86,2641.35
75,-119.1185,37.5718,8681.58,2646.15
76,-119.1180,37.5721,8690.01,2648.72
77,-119.1176,37.5724,8687.24,2647.87
78,-119.1172,37.5727,8656.89,2638.62
79,-119.1168,37.5730,8599.50,2621.13
80,-119.1163,37.5733,8558.51,2608.63
81,-119.1159,37.5736,8540.08,2603.02
82,-119.1155,37.5739,8535.04,2601.48
83,-119.1151,37.5741,8524.04,2598.13
84,-119.1146,37.5744,8510.74,2594.07
85,-119.1142,37.5747,8492.93,2588.65
86,-119.1138,37.5750,8478.52,2584.25
87,-119.1134,37.5753,8466.23,2580.51
88,-119.1129,37.5756,8458.62,2578.19
89,-119.1125,37.5759,8470.19,2581.71
90,-119.1121,37.5762,8482.10,2585.34
91,-119.1117,37.5765,8472.63,2582.46
92,-119.1112,37.5768,8463.85,2579.78
93,-119.1108,37.5771,8456.56,2577.56
94,-119.1104,37.5774,8459.85,2578.56
95,-119.1099,37.5777,8473.27,2582.65
96,-119.1095,37.5780,8492.35,2588.47
97,-119.1091,37.5783,8508.78,2593.48
98,-119.1087,37.5786,8530.80,2600.19
99,-119.1082,37.5789,8543.59,2604.09
100,-119.1078,37.5792,8544.55,2604.38
101,-119.1074,37.5794,8526.49,2598.87
102,-119.1070,37.5797,8463.67,2579.73
103,-119.1065,37.5800,8382.46,2554.97
104,-119.1061,37.5803,8360.75,2548.36
105,-119.1057,37.5806,8349.56,2544.95
106,-119.1053,37.5809,8315.80,2534.66
107,-119.1048,37.5812,8241.44,2511.99
108,-119.1044,37.5815,8147.64,2483.40
109,-119.1040,37.5818,8073.17,2460.70
110,-119.1036,37.5821,8005.09,2439.95
111,-119.1031,37.5824,7932.18,2417.73
112,-119.1027,37.5827,7873.10,2399.72
113,-119.1023,37.5830,7834.84,2388.06
114,-119.1019,37.5833,7806.53,2379.43
115,-119.1014,37.5836,7791.40,2374.82
116,-119.1010,37.5839,7817.06,2382.64
117,-119.1006,37.5842,7811.08,2380.82
118,-119.1002,37.5845,7771.25,2368.68
119,-119.0997,37.5847,7727.60,2355.37
120,-119.0993,37.5850,7722.35,2353.77
121,-119.0989,37.5853,7670.16,2337.86
122,-119.0984,37.5856,7585.48,2312.05
123,-119.0980,37.5859,7425.62,2263.33
124,-119.0976,37.5862,7300.20,2225.10
125,-119.0972,37.5865,7173.31,2186.42
126,-119.0967,37.5868,7111.62,2167.62
127,-119.0963,37.5871,7058.53,2151.44
128,-119.0959,37.5874,6994.97,2132.07
129,-119.0955,37.5877,6965.81,2123.18
130,-119.0950,37.5880,6921.31,2109.62
131,-119.0946,37.5883,6900.68,2103.33
132,-119.0942,37.5886,7095.28,2162.64
133,-119.0938,37.5889,7156.70,2181.36
134,-119.0933,37.5892,7148.44,2178.84
135,-119.0929,37.5895,7169.25,2185.19
136,-119.0925,37.5898,7227.11,2202.82
137,-119.0921,37.5901,7242.41,2207.49
138,-119.0916,37.5903,7264.90,2214.34
139,-119.0912,37.5906,7284.57,2220.34
140,-119.0908,37.5909,7286.27,2220.86
141,-119.0904,37.5912,7291.69,2222.51
142,-119.0899,37.5915,7295.93,2223.80
143,-119.0895,37.5918,7295.46,2223.66
144,-119.0891,37.5921,7291.69,2222.51
145,-119.0886,37.5924,7292.11,2222.64
146,-119.0882,37.5927,7299.10,2224.77
147,-119.0878,37.5930,7306.19,2226.93
148,-119.0874,37.5933,7318.06,2230.54
149,-119.0869,37.5936,7324.32,2232.45
150,-119.0865,37.5939,7327.01,2233.27
151,-119.0861,37.5942,7330.27,2234.27
152,-119.0857,37.5945,7336.90,2236.29
153,-119.0852,37.5948,7345.35,2238.86
154,-119.0848,37.5951,7364.91,2244.82
155,-119.0844,37.5954,7398.46,2255.05
156,-119.0840,37.5956,7425.59,2263.32
157,-119.0835,37.5959,7435.30,2266.28
158,-119.0831,37.5962,7447.83,2270.10
159,-119.0827,37.5965,7459.79,2273.74
160,-119.0823,37.5968,7478.34,2279.40
161,-119.0818,37.5971,7511.46,2289.49
162,-119.0814,37.5974,7540.45,2298.33
163,-119.0810,37.5977,7558.20,2303.74
164,-119.0806,37.5980,7566.27,2306.20
165,-119.0801,37.5983,7571.87,2307.91
166,-119.0797,37.5986,7590.09,2313.46
167,-119.0793,37.5989,7599.87,2316.44
168,-119.0788,37.5992,7614.84,2321.00
169,-119.0784,37.5995,7667.24,2336.97
170,-119.0780,37.5998,7685.53,2342.55
171,-119.0776,37.6001,7711.05,2350.33
172,-119.0771,37.6004,7723.54,2354.13
173,-119.0767,37.6007,7729.19,2355.86
174,-119.0763,37.6009,7739.81,2359.09
175,-119.0759,37.6012,7756.69,2364.24
176,-119.0754,37.6015,7769.67,2368.20
177,-119.0750,37.6018,7769.68,2368.20
178,-119.0746,37.6021,7773.38,2369.33
179,-119.0742,37.6024,7782.02,2371.96
180,-119.0737,37.6027,7790.41,2374.52
181,-119.0733,37.6030,7804.06,2378.68
182,-119.0729,37.6033,7817.68,2382.83
183,-119.0725,37.6036,7850.47,2392.82
184,-119.0720,37.6039,7885.99,2403.65
185,-119.0716,37.6042,7902.73,2408.75
186,-119.0712,37.6045,7930.54,2417.23
187,-119.0708,37.6048,7952.23,2423.84
188,-119.0703,37.6051,7978.97,2431.99
189,-119.0699,37.6054,8003.80,2439.56
190,-119.0695,37.6057,8032.25,2448.23
191,-119.0690,37.6060,8069.27,2459.51
192,-119.0686,37.6062,8097.45,2468.10
193,-119.0682,37.6065,8135.81,2479.79
194,-119.0678,37.6068,8154.99,2485.64
195,-119.0673,37.6071,8164.35,2488.49
196,-119.0669,37.6074,8175.59,2491.92
197,-119.0665,37.6077,8189.68,2496.21
198,-119.0661,37.6080,8211.12,2502.75
199,-119.0656,37.6083,8243.33,2512.57
200,-119.0652,37.6086,8273.10,2521.64
201,-119.0648,37.6089,8321.60,2536.42
202,-119.0644,37.6092,8355.57,2546.78
203,-119.0639,37.6095,8399.11,2560.05
204,-119.0635,37.6098,8422.98,2567.32
205,-119.0631,37.6101,8442.47,2573.26
206,-119.0627,37.6104,8472.46,2582.41
207,-119.0622,37.6107,8510.59,2594.03
208,-119.0618,37.6110,8547.29,2605.21
209,-119.0614,37.6113,8583.86,2616.36
210,-119.0610,37.6115,8618.76,2627.00
211,-119.0605,37.6118,8669.54,2642.48
212,-119.0601,37.6121,8696.01,2650.54
213,-119.0597,37.6124,8731.27,2661.29
214,-119.0592,37.6127,8755.84,2668.78
215,-119.0588,37.6130,8775.19,2674.68
216,-119.0584,37.6133,8794.94,2680.70
217,-119.0580,37.6136,8819.55,2688.20
218,-119.0575,37.6139,8850.67,2697.68
219,-119.0571,37.6142,8872.07,2704.21
220,-119.0567,37.6145,8883.49,2707.69
221,-119.0563,37.6148,8901.29,2713.11
222,-119.0558,37.6151,8919.62,2718.70
223,-119.0554,37.6154,8941.76,2725.45
224,-119.0550,37.6157,8969.39,2733.87
225,-119.0546,37.6160,8989.05,2739.86
226,-119.0541,37.6163,9008.37,2745.75
227,-119.0537,37.6166,9018.99,2748.99
228,-119.0533,37.6168,9036.61,2754.36
229,-119.0529,37.6171,9053.83,2759.61
230,-119.0524,37.6174,9063.63,2762.59
231,-119.0520,37.6177,9075.42,2766.19
232,-119.0516,37.6180,9088.52,2770.18
233,-119.0512,37.6183,9113.86,2777.90
234,-119.0507,37.6186,9128.49,2782.36
235,-119.0503,37.6189,9129.36,2782.63
236,-119.0499,37.6192,9143.29,2786.87
237,-119.0494,37.6195,9158.88,2791.63
238,-119.0490,37.6198,9177.94,2797.44
239,-119.0486,37.6201,9197.60,2803.43
240,-119.0482,37.6204,9206.60,2806.17
241,-119.0477,37.6207,9233.20,2814.28
242,-119.0473,37.6210,9247.36,2818.60
243,-119.0469,37.6213,9264.46,2823.81
244,-119.0465,37.6216,9296.52,2833.58
245,-119.0460,37.6219,9314.33,2839.01
246,-119.0456,37.6221,9338.79,2846.46
247,-119.0452,37.6224,9378.10,2858.44
248,-119.0448,37.6227,9409.31,2867.96
249,-119.0443,37.6230,9446.77,2879.38
250,-119.0439,37.6233,9476.92,2888.57
251,-119.0435,37.6236,9520.25,2901.77
252,-119.0431,37.6239,9560.92,2914.17
253,-119.0426,37.6242,9583.47,2921.04
254,-119.0422,37.6245,9620.24,2932.25
255,-119.0418,37.6248,9640.66,2938.47
256,-119.0414,37.6251,9680.11,2950.50
257,-119.0409,37.6254,9713.16,2960.57
258,-119.0405,37.6257,9791.49,2984.45
259,-119.0401,37.6260,9840.43,2999.36
260,-119.0396,37.6263,9904.66,3018.94
261,-119.0392,37.6266,9968.86,3038.51
262,-119.0388,37.6269,10029.47,3056.98
263,-119.0384,37.6272,10131.13,3087.97
264,-119.0379,37.6274,10224.73,3116.50
265,-119.0375,37.6277,10302.79,3140.29
266,-119.0371,37.6280,10379.74,3163.74
267,-119.0367,37.6283,10464.12,3189.46
268,-119.0362,37.6286,10542.08,3213.23
269,-119.0358,37.6289,10610.36,3234.04
270,-119.0354,37.6292,10664.46,3250.53
271,-119.0350,37.6295,10737.31,3272.73
272,-119.0345,37.6298,10805.12,3293.40
273,-119.0341,37.6301,10882.46,3316.97
274,-119.0337,37.6304,10948.68,3337.16
275,-119.0333,37.6307,10982.77,3347.55
276,-119.0328,37.6310,10986.40,3348.65
277,-119.0324,37.6313,10802.98,3292.75
278,-119.0320,37.6316,10702.45,3262.11
279,-119.0316,37.6319,10552.23,3216.32
280,-119.0311,37.6322,10467.52,3190.50
281,-119.0307,37.6325,10373.36,3161.80
282,-119.0303,37.6328,10303.12,3140.39
283,-119.0298,37.6330,10261.64,3127.75
284,-119.0294,37.6333,10225.81,3116.83
285,-119.0290,37.6336,10229.42,3117.93
286,-119.0286,37.6339,10224.23,3116.35
287,-119.0281,37.6342,10186.91,3104.97
288,-119.0277,37.6345,10137.37,3089.87
289,-119.0273,37.6348,10081.59,3072.87
290,-119.0269,37.6351,10012.07,3051.68
291,-119.0264,37.6354,9965.42,3037.46
292,-119.0260,37.6357,9898.23,3016.98
293,-119.0256,37.6360,9839.72,2999.15
294,-119.0252,37.6363,9807.36,2989.28
295,-119.0247,37.6366,9728.05,2965.11
296,-119.0243,37.6369,9682.32,2951.17
297,-119.0239,37.6372,9640.12,2938.31
298,-119.0235,37.6375,9597.33,2925.27
299,-119.0230,37.6378,9568.02,2916.33
300,-119.0226,37.6381,9547.16,2909.97
301,-119.0222,37.6383,9531.64,2905.24
302,-119.0218,37.6386,9521.91,2902.28
303,-119.0213,37.6389,9515.51,2900.33
304,-119.0209,37.6392,9510.97,2898.94
305,-119.0205,37.6395,9497.66,2894.89
306,-119.0201,37.6398,9472.85,2887.32
307,-119.0196,37.6401,9455.64,2882.08
308,-119.0192,37.6404,9414.65,2869.59
309,-119.0188,37.6407,9365.88,2854.72
310,-119.0183,37.6410,9310.20,2837.75
311,-119.0179,37.6413,9263.60,2823.55
312,-119.0175,37.6416,9205.39,2805.80
313,-119.0171,37.6419,9179.36,2797.87
314,-119.0166,37.6422,9146.93,2787.98
315,-119.0162,37.6425,9107.25,2775.89
316,-119.0158,37.6428,9071.68,2765.05
317,-119.0154,37.6431,9039.04,2755.10
318,-119.0149,37.6434,9016.46,2748.22
319,-119.0145,37.6436,8993.29,2741.15
320,-119.0141,37.6439,8957.04,2730.11
321,-119.0137,37.6442,8918.12,2718.24
322,-119.0132,37.6445,8867.12,2702.70
323,-119.0128,37.6448,8843.49,2695.50
324,-119.0124,37.6451,8811.80,2685.84
325,-119.0120,37.6454,8791.19,2679.55
326,-119.0115,37.6457,8778.13,2675.57
327,-119.0111,37.6460,8756.79,2669.07
328,-119.0107,37.6463,8752.15,2667.66
329,-119.0103,37.6466,8745.51,2665.63
330,-119.0098,37.6469,8736.90,2663.01
331,-119.0094,37.6472,8715.20,2656.39
332,-119.0090,37.6475,8680.69,2645.87
333,-119.0085,37.6478,8663.75,2640.71
334,-119.0081,37.6481,8644.77,2634.93
335,-119.0077,37.6484,8629.21,2630.18
336,-119.0073,37.6487,8619.23,2627.14
337,-119.0068,37.6489,8612.55,2625.11
338,-119.0064,37.6492,8606.54,2623.27
339,-119.0060,37.6495,8586.74,2617.24
340,-119.0056,37.6498,8578.69,2614.78
341,-119.0051,37.6501,8573.32,2613.15
342,-119.0047,37.6504,8569.59,2612.01
343,-119.0043,37.6507,8570.07,2612.16
344,-119.0039,37.6510,8565.81,2610.86
345,-119.0034,37.6513,8567.48,2611.37
346,-119.0030,37.6516,8565.01,2610.62
347,-119.0026,37.6519,8563.52,2610.16
348,-119.0022,37.6522,8563.85,2610.26
349,-119.0017,37.6525,8567.95,2611.51
350,-119.0013,37.6528,8573.28,2613.14
351,-119.0009,37.6531,8564.01,2610.31
352,-119.0005,37.6534,8542.55,2603.77
353,-119.0000,37.6537,8525.91,2598.70
354,-118.9996,37.6540,8502.56,2591.58
355,-118.9992,37.6542,8484.34,2586.03
356,-118.9987,37.6545,8475.63,2583.37
357,-118.9983,37.6548,8469.38,2581.47
358,-118.9979,37.6551,8450.00,2575.56
359,-118.9975,37.6554,8425.75,2568.17
360,-118.9970,37.6557,8397.26,2559.48
361,-118.9966,37.6560,8346.07,2543.88
362,-118.9962,37.6563,8303.34,2530.86
363,-118.9958,37.6566,8295.34,2528.42
364,-118.9953,37.6569,8296.36,2528.73
365,-118.9949,37.6572,8300.80,2530.08
366,-118.9945,37.6575,8312.56,2533.67
367,-118.9941,37.6578,8342.71,2542.86
368,-118.9936,37.6581,8369.84,2551.13
369,-118.9932,37.6584,8395.95,2559.09
370,-118.9928,37.6587,8411.46,2563.81
371,-118.9924,37.6590,8406.85,2562.41
372,-118.9919,37.6593,8414.17,2564.64
373,-118.9915,37.6595,8422.31,2567.12
374,-118.9911,37.6598,8413.56,2564.45
375,-118.9907,37.6601,8391.81,2557.82
376,-118.9902,37.6604,8380.97,2554.52
377,-118.9898,37.6607,8361.07,2548.45
378,-118.9894,37.6610,8335.72,2540.73
379,-118.9889,37.6613,8315.83,2534.66
380,-118.9885,37.6616,8305.65,2531.56
381,-118.9881,37.6619,8290.47,2526.94
382,-118.9877,37.6622,8272.72,2521.53
383,-118.9872,37.6625,8264.14,2518.91
384,-118.9868,37.6628,8257.20,2516.79
385,-118.9864,37.6631,8263.23,2518.63
386,-118.9860,37.6634,8270.41,2520.82
387,-118.9855,37.6637,8288.79,2526.42
388,-118.9851,37.6640,8309.49,2532.73
389,-118.9847,37.6643,8331.89,2539.56
390,-118.9843,37.6646,8358.38,2547.63
391,-118.9838,37.6648,8419.22,2566.18
392,-118.9834,37.6651,8481.00,2585.01
393,-118.9830,37.6654,8506.81,2592.88
394,-118.9826,37.6657,8514.08,2595.09
395,-118.9821,37.6660,8523.76,2598.04
396,-118.9817,37.6663,8521.19,2597.26
397,-118.9813,37.6666,8519.70,2596.80
398,-118.9809,37.6669,8520.01,2596.90
399,-118.9804,37.6672,8525.70,2598.63
400,-118.9800,37.6675,8532.38,2600.67
